078400.0
112769.0
24761.0
344521.0
464009.0
577841.0
61375929.0
7114244.0
8815409.0
937636.0
1056169.0
1114641.0
1238809.0
1395481.0
14160000.0
15133956.0
1653824.0
172601.0
1814161.0
1950625.0
2057121.0
211292769.0
221276900.0
231304164.0
24338724.0
25186624.0
265329.0
2715876.0
2850176.0
29145924.0
30167281.0
31100489.0
3222801.0
332025.0
3436864.0
3567081.0
3653824.0
371423249.0
381442401.0
391199025.0
40311364.0
41176400.0
4213225.0
4330625.0
4470225.0
45156025.0
46156816.0
4779524.0
4811881.0
495625.0
5042436.0
5162001.0
52687241.0
531243225.0
54446224.0
55478864.0
5652441.0
571521.0
5811449.0
5935344.0
60125316.0
61177241.0
62115600.0
6336100.0
6449.0
6526569.0
6663001.0
6759536.0
681340964.0
691368900.0
701234321.0
71318096.0
72187489.0
738464.0
7423409.0
7562001.0
76154449.0
77165649.0
7890601.0
7916129.0
803969.0
8141616.0
8266049.0
83197136.0
841299600.0
859.0
86695556.0
872809.0
8833489.0
8918496.0
9035721.0
9169696.0
92178084.0
93156025.0
9446225.0
951600.0
9617689.0
9758564.0
9861009.0
99562500.0
1001385329.0
101169744.0
102511225.0
10318225.0
1043600.0
10521025.0
10654289.0
107128164.0
108163216.0
109107584.0
11029241.0
111196.0
11228224.0
11359049.0
1143364.0
1151352569.0
116760384.0
1171106704.0
118182329.0
119134689.0
12013689.0
12124649.0
12270225.0
123163216.0
124147456.0
12575076.0
12612100.0
1275625.0
12844521.0
12965025.0
130185761.0
1311350244.0
1323721.0
133714025.0
1345929.0
13533124.0
13613924.0
13739204.0
138102400.0
139161604.0
140128881.0
14147961.0
1421296.0
14317424.0
14453361.0
14556644.0
1461313316.0
1471297321.0
1481290496.0
149331776.0
150190969.0
1515625.0
15220449.0
15355225.0
154144400.0
155168100.0
15694249.0
15720164.0
1581521.0
15940000.0
16067600.0
1612025.0
1621382976.0
163772641.0
1641048576.0
165179776.0
166127449.0
16712769.0
16832400.0
16978400.0
170159201.0
171150544.0
17271289.0
1738100.0
1748281.0
17545796.0
17661504.0
177919681.0
1781249924.0
179769129.0
180416025.0
181103041.0
1829.0
18310816.0
18444100.0
185146689.0
186167281.0
187108900.0
18832041.0
189256.0
19031329.0
19167081.0
19256169.0
1931375929.0
1941385329.0
1951223236.0
196313600.0
197183184.0
19810000.0
19925600.0
20065025.0
201155236.0
202163216.0
20387025.0
20414641.0
2054489.0
20642025.0
20765025.0
208122500.0
2091315609.0
21034225.0
211734449.0
21216900.0
21342436.0
21412100.0
21537636.0
216100489.0
217168100.0
218133956.0
21948841.0
2202116.0
22114884.0
22252441.0
22359536.0
224426409.0
2251401856.0
22665536.0
227574564.0
2284096.0
2298649.0
23020164.0
23150625.0
232120409.0
233160801.0
234110889.0
23533124.0
2361.0
23724649.0
23856169.0
23922500.0
2401357225.0
2411056784.0
2421185921.0
243258064.0
244157609.0
24510201.0
24624336.0
24764009.0
248148996.0
249156816.0
25085264.0
25114161.0
2523844.0
25341616.0
25466049.0
25557600.0
2561371241.0
257160000.0
258846400.0
25950625.0
26063504.0
26113689.0
26236864.0
26391809.0
264159201.0
265136900.0
26657121.0
2673481.0
26812996.0
26949729.0
27058081.0
2711290496.0
2721265625.0
2731329409.0
274341056.0
275193600.0
2764624.0
27713689.0
27851076.0
279160000.0
280165649.0
28191809.0
28224649.0
2831296.0
28438416.0
28567081.0
28653361.0
2871411344.0
2881435204.0
2891199025.0
290311364.0
291178084.0
29212544.0
29329929.0
29469696.0
295156025.0
296158404.0
29781225.0
29812100.0
2995476.0
30042849.0
30162500.0
302458329.0
3031276900.0
304154449.0
305564001.0
30612996.0
30710609.0
30811664.0
30943264.0
310117649.0
311163216.0
312126736.0
31342025.0
314144.0
31522500.0
31662001.0
31759049.0
3181192464.0
3191354896.0
320996004.0
321352836.0
322143641.0
3233969.0
32421316.0
32558564.0
326147456.0
327165649.0
32895481.0
32919044.0
3302500.0
33138025.0
33264516.0
33364516.0
3341327104.0
335109561.0
336839056.0
33733124.0
33862500.0
33914884.0
34031329.0
34188804.0
342167281.0
343142129.0
34458564.0
3454225.0
34611881.0
34755696.0
34863504.0
349294849.0
3501394761.0
3515041.0
352636804.0
353196.0
35418225.0
35519321.0
35647961.0
357113569.0
358160801.0
359116964.0
36038025.0
361144.0
36221609.0
36354756.0
36451984.0
3651334025.0
3661338649.0
3671232100.0
368334084.0
369174724.0
3707569.0
37121316.0
37259536.0
373150544.0
374160000.0
37589401.0
37618769.0
3772916.0
37841209.0
37963504.0
38047524.0
3811350244.0
382173056.0
383864900.0
38453824.0
38568644.0
38612100.0
38734225.0
38889401.0
389160000.0
390139876.0
39160025.0
3924096.0
39312321.0
39449729.0
39559536.0
3961279161.0
3971254400.0
3981327104.0
399338724.0
400190969.0
4013969.0
40213456.0
40351076.0
404147456.0
405168921.0
406103041.0
40724336.0
4081521.0
40938809.0
41068121.0
41151076.0
4121408969.0
4131420864.0
4141194649.0
415308025.0
416178929.0
41712100.0
41830276.0
41970225.0
420157609.0
421159201.0
42281796.0
42312100.0
4245476.0
42543264.0
42663504.0
427426409.0
4281279161.0
429124609.0
430573049.0
43110609.0
43211881.0
43313225.0
43441209.0
435114921.0
436167281.0
437122500.0
43842436.0
439400.0
44023409.0
44160025.0
44258081.0
4431308736.0
4441336336.0
4451221025.0
446326041.0
447181476.0
4486724.0
44920736.0
45058564.0
451150544.0
452167281.0
45393636.0
45418496.0
4553025.0
45640000.0
45766049.0
45892416.0
4591317904.0
46059049.0
461795664.0
46222201.0
46354756.0
46411881.0
46533489.0
46697344.0
467168921.0
468139876.0
46957121.0
4702809.0
47113456.0
47252900.0
47380656.0
474550564.0
4751500625.0
476188356.0
477558009.0
47820736.0
4794225.0
48018496.0
48148841.0
482124609.0
483164836.0
484112225.0
48532761.0
48625.0
48726569.0
48859536.0
4898836.0
4901359556.0
491848241.0
4921164241.0
493210681.0
494152881.0
4959409.0
49627889.0
49768644.0
498151321.0
499159201.0
50079524.0
50111236.0
5024356.0
50340000.0
50467600.0
505152100.0
5061350244.0
50713924.0
508736164.0
50910000.0
51038809.0
51113456.0
51238809.0
513101761.0
514163216.0
515131769.0
51650176.0
5171681.0
51816900.0
51953361.0
52057600.0
5211301881.0
5221290496.0
5231288225.0
524328329.0
525193600.0
5266400.0
52719044.0
52853361.0
529149769.0
530165649.0
53198596.0
53221904.0
5332704.0
53440401.0
53572900.0
5366724.0
5371452025.0
538881721.0
5391104601.0
540198025.0
541137641.0
54212544.0
54331329.0
54476176.0
545159201.0
546153664.0
54774529.0
5489025.0
5497396.0
55044944.0
55162001.0
552906304.0
5531236544.0
554758641.0
555413449.0
556100489.0
55736.0
55811881.0
55938416.0
560132496.0
561176400.0
562119716.0
56332400.0
564729.0
56530976.0
56664009.0
56756169.0
5681373584.0
5691378276.0
5701221025.0
571312481.0
572184900.0
5739409.0
57425600.0
57565025.0
576156025.0
577163216.0
57887616.0
57914884.0
5804356.0
58142436.0
58265536.0
583372100.0
5841272384.0
58585264.0
586595984.0
5875329.0
58815129.0
58910404.0
59037636.0
591114921.0
592170569.0
593128881.0
59445369.0
595484.0
59621904.0
59759536.0
59861009.0
599866761.0
6001378276.0
601529984.0
602421201.0
60372361.0
60449.0
60521609.0
60656644.0
607139129.0
608164836.0
60999856.0
61023104.0
6111225.0
61233856.0
61362001.0
6143844.0
6151354896.0
616450241.0
617990025.0
618117649.0
619104329.0
62011881.0
62130276.0
62279524.0
623160801.0
624148225.0
62569696.0
6267396.0
6278464.0
62847961.0
62964009.0
630311364.0
6311354896.0
63218225.0
633635209.0
63449.0
63517956.0
63615625.0
63743681.0
638110889.0
639162409.0
640121801.0
64140804.0
642324.0
64320736.0
64455696.0
64532761.0
6461331716.0
6471110916.0
6481232100.0
649280900.0
650168100.0
6517396.0
65220164.0
65360025.0
654149769.0
655163216.0
65692416.0
65717161.0
6583600.0
65940401.0
66068121.0
66116900.0
6621382976.0
663326041.0
664919681.0
66585849.0
66684681.0
66712996.0
66834596.0
66987025.0
670160000.0
671142129.0
67262001.0
6734900.0
67411236.0
67548841.0
67659536.0
6771270129.0
6781243225.0
6791331716.0
680337561.0
681195364.0
6824225.0
68314400.0
68447524.0
685141376.0
686170569.0
687110224.0
68827889.0
6892304.0
69042436.0
69164516.0
69251984.0
6931399489.0
6941425636.0
6951203409.0
696309136.0
697180625.0
69812100.0
69929241.0
70069169.0
701157609.0
702159201.0
70381796.0
70412321.0
7055329.0
70643264.0
70763001.0
708859329.0
7091223236.0
710731025.0
711434281.0
71297344.0
713225.0
7149801.0
71540000.0
716133956.0
717175561.0
718117649.0
71934969.0
72064.0
72129929.0
72266049.0
72361009.0
7241357225.0
7251378276.0
7261229881.0
727312481.0
728187489.0
7298836.0
73024336.0
73164009.0
732155236.0
733165649.0
73489401.0
73515625.0
7364225.0
73742025.0
73866049.0
73999856.0
7401334025.0
74156644.0
742783225.0
74321904.0
74453361.0
74512769.0
74637636.0
74796721.0
748164836.0
749137641.0
75055696.0
7513249.0
75215876.0
75357600.0
75458564.0
755674041.0
7561354896.0
757312481.0
758483025.0
75936864.0
7601225.0
76118769.0
76251529.0
763128881.0
764164025.0
765107584.0
76629241.0
767256.0
76828900.0
76960025.0
770900.0
7711327104.0
772498436.0
7731020100.0
774135424.0
775110224.0
7769216.0
77726569.0
77876729.0
779156025.0
780148225.0
78176729.0
7829409.0
7837569.0
78445796.0
78565536.0
78683521.0
7871399489.0
788114244.0
789802816.0
79036481.0
79153361.0
79216384.0
79340804.0
79497969.0
795160000.0
796131044.0
79751076.0
7982116.0
79915129.0
80050625.0
80155696.0
8021306449.0
8031281424.0
8041301881.0
805332929.0
806185761.0
8076084.0
80815876.0
80952441.0
810150544.0
811164025.0
81294864.0
81323104.0
8141936.0
81539204.0
81666049.0
8173249.0
8181387684.0
819793881.0
8201062961.0
821184041.0
822129600.0
82312100.0
82431684.0
82576729.0
826157609.0
827151321.0
82872361.0
8298649.0
8307744.0
83145369.0
83261504.0
8331243225.0
8341205604.0
8351361889.0
836335241.0
837192721.0
8383844.0
8399604.0
84042849.0
841169744.0
842174724.0
84376729.0
84430625.0
84581.0
84638809.0
84768121.0
84859536.0
8491378276.0
8501416100.0
8511201216.0
852306916.0
853187489.0
85410201.0
85527556.0
85668644.0
857158404.0
858163216.0
85985849.0
86013456.0
8615184.0
86243681.0
86365536.0
864467856.0
8651265625.0
866175561.0
867553536.0
86816900.0
8699604.0
87012544.0
87139204.0
872108900.0
873173889.0
874132496.0
87540000.0
876196.0
87723409.0
87863001.0
87960025.0
8801270129.0
8811345600.0
8821142761.0
883330625.0
884171396.0
8855776.0
88621316.0
88759536.0
888152100.0
889167281.0
89094249.0
89118225.0
8922916.0
89340000.0
89466564.0
895153664.0
8961297321.0
8977396.0
898732736.0
8998100.0
90042436.0
90110000.0
90235344.0
903101124.0
904168100.0
905138384.0
90654756.0
9072500.0
90816900.0
90957121.0
91061009.0
911447561.0
9121387684.0
91380656.0
914558009.0
9156241.0
9167744.0
91720164.0
91851529.0
919122500.0
920161604.0
921110224.0
92232041.0
9239.0
92425600.0
92557121.0
9262025.0
9271329409.0
928698896.0
9291032256.0
930184900.0
93193636.0
9327396.0
93318496.0
93472900.0
935152881.0
936156025.0
93780089.0
93811664.0
9395776.0
94043681.0
